1 סאזא - ףכענא, 28.9.2016, 17:21
Diameter[mm] 2.000e+01  Thickness[mm] 1.250e-01  Spacer Capacity[pF] 1.000e+00  Spacer Area[mm^2] 0.000e+00
Fixed value(s) :  Temp. [°C]=1.5000e+02  AC Volt  [Vrms]=1.000e+00
 Freq. [Hz]	 Eps'  	 Eps'' 	 Sig' [S/cm]	 Sig'' [S/cm]	 Zp' [Ohms]	 Zp'' [Ohms]	 Modulus'  	 Modulus''  
1.00000e+06	3.05398e+00	1.42631e-01	7.93493e-08	-1.14268e-06	5.01438e+04	2.34188e+03	3.26729e-01	1.52593e-02
7.40741e+05	3.08230e+00	1.43935e-01	5.93145e-08	-8.58102e-07	6.70809e+04	3.13249e+03	3.23727e-01	1.51171e-02
5.48697e+05	3.10764e+00	1.45390e-01	4.43810e-08	-6.43367e-07	8.96527e+04	4.19438e+03	3.21084e-01	1.50218e-02
4.06442e+05	3.13277e+00	1.48040e-01	3.34739e-08	-4.82249e-07	1.18865e+05	5.61700e+03	3.18496e-01	1.50506e-02
3.01068e+05	3.15771e+00	1.52210e-01	2.54940e-08	-3.61400e-07	1.56071e+05	7.52304e+03	3.15951e-01	1.52297e-02
2.23014e+05	3.18249e+00	1.58471e-01	1.96612e-08	-2.70778e-07	2.02372e+05	1.00770e+04	3.13442e-01	1.56077e-02
1.65195e+05	3.20670e+00	1.67455e-01	1.53895e-08	-2.02801e-07	2.58545e+05	1.35013e+04	3.10999e-01	1.62404e-02
1.22367e+05	3.23062e+00	1.80047e-01	1.22569e-08	-1.51851e-07	3.24624e+05	1.80918e+04	3.08580e-01	1.71976e-02
1.00000e+05	3.24652e+00	1.91263e-01	1.06404e-08	-1.24980e-07	3.73939e+05	2.20299e+04	3.06957e-01	1.80838e-02
7.40741e+04	3.27016e+00	2.13284e-01	8.78929e-09	-9.35519e-08	4.52696e+05	2.95254e+04	3.04500e-01	1.98598e-02
5.48697e+04	3.29394e+00	2.43568e-01	7.43503e-09	-7.00235e-08	5.35152e+05	3.95715e+04	3.01937e-01	2.23266e-02
4.06442e+04	3.31833e+00	2.84785e-01	6.43940e-09	-5.24207e-08	6.17896e+05	5.30289e+04	2.99153e-01	2.56739e-02
3.01068e+04	3.34384e+00	3.40427e-01	5.70188e-09	-3.92574e-08	6.97818e+05	7.10429e+04	2.95990e-01	3.01339e-02
2.23013e+04	3.37107e+00	4.14927e-01	5.14792e-09	-2.94174e-08	7.72909e+05	9.51333e+04	2.92215e-01	3.59672e-02
1.65195e+04	3.40093e+00	5.14142e-01	4.72509e-09	-2.20651e-08	8.42074e+05	1.27302e+05	2.87467e-01	4.34584e-02
1.22367e+04	3.43491e+00	6.45877e-01	4.39686e-09	-1.65758e-08	9.04936e+05	1.70158e+05	2.81187e-01	5.28724e-02
1.00000e+04	3.46082e+00	7.57440e-01	4.21384e-09	-1.36902e-08	9.44240e+05	2.06658e+05	2.75741e-01	6.03490e-02
7.40741e+03	3.50558e+00	9.67392e-01	3.98656e-09	-1.03253e-08	9.98072e+05	2.75426e+05	2.65073e-01	7.31491e-02
5.48697e+03	3.55943e+00	1.24301e+00	3.79435e-09	-7.81276e-09	1.04863e+06	3.66200e+05	2.50406e-01	8.74462e-02
4.06442e+03	3.62299e+00	1.60371e+00	3.62622e-09	-5.93096e-09	1.09725e+06	4.85696e+05	2.30794e-01	1.02160e-01
3.01068e+03	3.70300e+00	2.07651e+00	3.47799e-09	-4.52730e-09	1.14402e+06	6.41524e+05	2.05447e-01	1.15207e-01
2.23014e+03	3.79871e+00	2.69547e+00	3.34421e-09	-3.47231e-09	1.18978e+06	8.44235e+05	1.75090e-01	1.24239e-01
1.65195e+03	3.91382e+00	3.51036e+00	3.22610e-09	-2.67787e-09	1.23334e+06	1.10620e+06	1.41597e-01	1.27000e-01
1.22367e+03	4.04100e+00	4.58114e+00	3.11865e-09	-2.07019e-09	1.27583e+06	1.44637e+06	1.08290e-01	1.22764e-01
1.00000e+03	4.13171e+00	5.48494e+00	3.05141e-09	-1.74225e-09	1.30394e+06	1.73102e+06	8.76187e-02	1.16316e-01
7.40741e+02	4.28068e+00	7.20370e+00	2.96860e-09	-1.35195e-09	1.34032e+06	2.25555e+06	6.09631e-02	1.02591e-01
5.48697e+02	4.43049e+00	9.48506e+00	2.89535e-09	-1.04717e-09	1.37423e+06	2.94203e+06	4.04258e-02	8.65460e-02
4.06442e+02	4.58853e+00	1.25465e+01	2.83694e-09	-8.11419e-10	1.40252e+06	3.83494e+06	2.57106e-02	7.03007e-02
3.01068e+02	4.74941e+00	1.66692e+01	2.79196e-09	-6.27996e-10	1.42512e+06	5.00181e+06	1.58092e-02	5.54864e-02
2.23014e+02	4.90545e+00	2.21983e+01	2.75411e-09	-4.84542e-10	1.44471e+06	6.53764e+06	9.49143e-03	4.29510e-02
1.65195e+02	5.06436e+00	2.96658e+01	2.72636e-09	-3.73525e-10	1.45941e+06	8.54887e+06	5.59161e-03	3.27543e-02
1.22367e+02	5.22124e+00	3.97184e+01	2.70386e-09	-2.87364e-10	1.47155e+06	1.11942e+07	3.25349e-03	2.47495e-02
1.00000e+02	5.32869e+00	4.83714e+01	2.69102e-09	-2.40816e-10	1.47857e+06	1.34218e+07	2.25012e-03	2.04255e-02
7.40741e+01	5.49037e+00	6.49437e+01	2.67629e-09	-1.85045e-10	1.48672e+06	1.75858e+07	1.29251e-03	1.52887e-02
5.48697e+01	5.65705e+00	8.72916e+01	2.66461e-09	-1.42158e-10	1.49323e+06	2.30414e+07	7.39307e-04	1.14079e-02
4.06442e+01	5.83540e+00	1.17427e+02	2.65518e-09	-1.09335e-10	1.49853e+06	3.01551e+07	4.22150e-04	8.49498e-03
3.01068e+01	6.07475e+00	1.57799e+02	2.64301e-09	-8.49979e-11	1.50543e+06	3.91055e+07	2.43599e-04	6.32779e-03
2.23013e+01	6.31044e+00	2.12588e+02	2.63755e-09	-6.58857e-11	1.50855e+06	5.08206e+07	1.39508e-04	4.69978e-03
1.65195e+01	6.60287e+00	2.86512e+02	2.63311e-09	-5.14917e-11	1.51109e+06	6.55693e+07	8.03929e-05	3.48841e-03
1.22367e+01	6.95655e+00	3.86209e+02	2.62915e-09	-4.05497e-11	1.51337e+06	8.40182e+07	4.66239e-05	2.58843e-03
1.00000e+01	7.26168e+00	4.72034e+02	2.62605e-09	-3.48353e-11	1.51516e+06	9.84904e+07	3.25827e-05	2.11799e-03
7.40741e+00	7.85052e+00	6.36287e+02	2.62210e-09	-2.82305e-11	1.51744e+06	1.22989e+08	1.93877e-05	1.57138e-03
5.48697e+00	8.67117e+00	8.57824e+02	2.61854e-09	-2.34166e-11	1.51950e+06	1.50321e+08	1.17825e-05	1.16562e-03
4.06442e+00	9.82634e+00	1.15625e+03	2.61444e-09	-1.99576e-11	1.52188e+06	1.79077e+08	7.34952e-06	8.64804e-04
3.01068e+00	1.15246e+01	1.55814e+03	2.60976e-09	-1.76279e-11	1.52461e+06	2.06129e+08	4.74667e-06	6.41755e-04
2.23013e+00	1.39170e+01	2.10003e+03	2.60547e-09	-1.60259e-11	1.52712e+06	2.30438e+08	3.15555e-06	4.76163e-04
1.65195e+00	1.72586e+01	2.83036e+03	2.60117e-09	-1.49421e-11	1.52965e+06	2.50857e+08	2.15430e-06	3.53298e-04
1.22367e+00	2.22647e+01	3.81335e+03	2.59597e-09	-1.44761e-11	1.53271e+06	2.62512e+08	1.53105e-06	2.62228e-04
1.00000e+00	2.65428e+01	4.65682e+03	2.59071e-09	-1.42101e-11	1.53582e+06	2.69454e+08	1.22392e-06	2.14732e-04
1.00000e+00	2.62362e+01	4.64864e+03	2.58616e-09	-1.40395e-11	1.53853e+06	2.72603e+08	1.21404e-06	2.15110e-04
7.40741e-01	3.53911e+01	6.25711e+03	2.57851e-09	-1.41724e-11	1.54309e+06	2.72816e+08	9.03927e-07	1.59813e-04
5.48697e-01	4.92955e+01	8.41712e+03	2.56936e-09	-1.47424e-11	1.54858e+06	2.64418e+08	6.95770e-07	1.18801e-04
4.06442e-01	6.80248e+01	1.13134e+04	2.55812e-09	-1.51553e-11	1.55539e+06	2.58681e+08	5.31452e-07	8.83875e-05
3.01068e-01	9.39199e+01	1.51874e+04	2.54377e-09	-1.55633e-11	1.56416e+06	2.52935e+08	4.07167e-07	6.58414e-05
2.23014e-01	1.31031e+02	2.03566e+04	2.52560e-09	-1.61327e-11	1.57542e+06	2.44752e+08	3.16189e-07	4.91222e-05
1.65195e-01	1.84140e+02	2.72242e+04	2.50197e-09	-1.68310e-11	1.59030e+06	2.35118e+08	2.48438e-07	3.67304e-05
1.22367e-01	2.60563e+02	3.63062e+04	2.47157e-09	-1.76699e-11	1.60986e+06	2.24313e+08	1.97664e-07	2.75421e-05
1.00000e-01	3.29935e+02	4.38001e+04	2.43671e-09	-1.82995e-11	1.63289e+06	2.16772e+08	1.71970e-07	2.28297e-05